         Day            Total(kg)(gt)       ngrid          39          39       gridl        25.0        25.0
         1.0              0.043511752
         2.0              0.084940252
         3.0              0.128216798
         4.0              0.171396587
         5.0              0.214468369
         6.0              0.257432484
         7.0              0.300173482
         8.0              0.339363028
         9.0              0.377565611
        10.0              0.414956794
        11.0              0.451541933
        12.0              0.487268530
        13.0              0.522215664
        14.0              0.556327445
        15.0              0.589649310
        16.0              0.622201667
        17.0              0.645161016
        18.0              0.676344043
        19.0              0.706780662
        20.0              0.736496736
        21.0              0.765620164
        22.0              0.793878543
        23.0              0.821695830
        24.0              0.848731145
        25.0              0.875180463
        26.0              0.901010144
        27.0              0.926233069
        28.0              0.950843431
        29.0              0.974799117
        30.0              0.998207126
        31.0              1.021065089
        32.0              1.036752100
        33.0              1.058568458
        34.0              1.079849098
        35.0              1.100603165
        36.0              1.120862653
        37.0              1.140550212
        38.0              1.159867364
        39.0              1.178641327
        40.0              1.196940392
        41.0              1.214756987
        42.0              1.232148044
        43.0              1.249091033
        44.0              1.265595470
        45.0              1.281652749
        46.0              1.297286167
        47.0              1.307593702
        48.0              1.322455638
        49.0              1.336914059
        50.0              1.351003659
        51.0              1.364718436
        52.0              1.378002356
        53.0              1.391038161
        54.0              1.403625416
        55.0              1.415893632
        56.0              1.427820677
        57.0              1.439426694
        58.0              1.450704677
        59.0              1.461632310
        60.0              1.472258751
        61.0              1.482549456
        62.0              1.488738904
        63.0              1.498463915
        64.0              1.507900282
        65.0              1.517052014
        66.0              1.525925605
        67.0              1.534468553
        68.0              1.542833549
        69.0              1.550896653
        70.0              1.558716948
        71.0              1.566269010
        72.0              1.573574617
        73.0              1.580645802
        74.0              1.587463607
        75.0              1.594061777
        76.0              1.600423642
        77.0              1.603762102
        78.0              1.609688126
        79.0              1.615409544
        80.0              1.620930377
        81.0              1.626234320
        82.0              1.631314249
        83.0              1.636239781
        84.0              1.640955302
        85.0              1.645476565
        86.0              1.649813141
        87.0              1.653981832
        88.0              1.657960291
        89.0              1.661762782
        90.0              1.665381278
        91.0              1.668836172
        92.0              1.670090102
        93.0              1.673245688
        94.0              1.676235182
        95.0              1.679079425
        96.0              1.681770884
        97.0              1.684287681
        98.0              1.686702738
        99.0              1.688954867
       100.0              1.691068778
       101.0              1.693049104
       102.0              1.694899031
       103.0              1.696619834
       104.0              1.698202968
       105.0              1.699669974
       106.0              1.701014753
       107.0              1.700681155
       108.0              1.701792564
       109.0              1.702790763
       110.0              1.703683955
       111.0              1.704464556
       112.0              1.705118910
       113.0              1.705700908
       114.0              1.706162382
       115.0              1.706527636
       116.0              1.706788077
       117.0              1.706965154
       118.0              1.707047229
       119.0              1.707031401
       120.0              1.706924611
       121.0              1.706729675
       122.0              1.705268074
       123.0              1.704910215
       124.0              1.704466677
       125.0              1.703939623
       126.0              1.703343041
       127.0              1.702648654
       128.0              1.701910282
       129.0              1.701086667
       130.0              1.700188045
       131.0              1.699216593
       132.0              1.698178326
       133.0              1.697080352
       134.0              1.695911513
       135.0              1.694677025
       136.0              1.693376076
       137.0              1.691137313
       138.0              1.689718606
       139.0              1.688246889
       140.0              1.686717379
       141.0              1.685133285
       142.0              1.683480800
       143.0              1.681791295
       144.0              1.680044339
       145.0              1.678247841
       146.0              1.676398725
       147.0              1.674509825
       148.0              1.672573029
       149.0              1.670589889
       150.0              1.668558285
       151.0              1.666478454
       152.0              1.663684883
       153.0              1.661525990
       154.0              1.659322273
       155.0              1.657084776
       156.0              1.654806277
       157.0              1.652485316
       158.0              1.650137297
       159.0              1.647750614
       160.0              1.645331467
       161.0              1.642875492
       162.0              1.640388310
       163.0              1.637869932
       164.0              1.635314825
       165.0              1.632724493
       166.0              1.630108033
       167.0              1.626969521
       168.0              1.624295941
       169.0              1.621596578
       170.0              1.618870832
       171.0              1.616121550
       172.0              1.613340706
       173.0              1.610542519
       174.0              1.607719299
       175.0              1.604870536
       176.0              1.601998501
       177.0              1.599107875
       178.0              1.596196273
       179.0              1.593256447
       180.0              1.590302594
       181.0              1.587326487
       182.0              1.583950746
       183.0              1.580937772
       184.0              1.577909925
       185.0              1.574861078
       186.0              1.571798601
       187.0              1.568716956
       188.0              1.565621813
       189.0              1.562508766
       190.0              1.559384126
       191.0              1.556244716
       192.0              1.553090606
       193.0              1.549921264
       194.0              1.546743046
       195.0              1.543550718
       196.0              1.540343907
       197.0              1.536855654
       198.0              1.533626868
       199.0              1.530391404
       200.0              1.527147426
       201.0              1.523890379
       202.0              1.520620621
       203.0              1.517348978
       204.0              1.514065808
       205.0              1.510774838
       206.0              1.507474977
       207.0              1.504167946
       208.0              1.500853675
       209.0              1.497529605
       210.0              1.494198527
       211.0              1.490863555
       212.0              1.487314648
       213.0              1.483965126
       214.0              1.480614091
       215.0              1.477254828
       216.0              1.473894285
       217.0              1.470523076
       218.0              1.467153678
       219.0              1.463780400
       220.0              1.460398774
       221.0              1.457015382
       222.0              1.453630323
       223.0              1.450242816
